ID,time,gFx,gFy,gFz,TgF
0,0.00858,-0.2674,0.4711,0.5724,0.79
1,0.02066,-0.1951,0.4579,0.6552,0.82
2,0.02083,-0.1951,0.4579,0.6552,0.82
3,0.03152,-0.1369,0.431,0.7801,0.9
4,0.04136,-0.0793,0.4229,0.8749,0.97
5,0.05257,-0.0446,0.4053,0.9518,1.04
6,0.06377,-0.0609,0.3924,0.986,1.06
7,0.07498,-0.0954,0.3565,0.9418,1.01
8,0.08606,-0.1687,0.3213,0.8744,0.95
9,0.09702,-0.1943,0.3132,0.7811,0.86
10,0.10811,-0.2051,0.3262,0.7053,0.8
11,0.11935,-0.2322,0.3394,0.6689,0.79
12,0.13039,-0.249,0.3494,0.6479,0.78
13,0.13052,-0.249,0.3494,0.6479,0.78
14,0.14152,-0.2586,0.3352,0.6657,0.79
15,0.15336,-0.274,0.2815,0.7532,0.85
16,0.16376,-0.2943,0.2109,0.8099,0.89
17,0.17494,-0.2877,0.1984,0.8402,0.91
18,0.18612,-0.3026,0.2043,0.8671,0.94
19,0.19718,-0.3446,0.2065,0.9272,1.01
20,0.20827,-0.3526,0.1803,0.8763,0.96
21,0.21949,-0.3187,0.1442,0.8617,0.93
22,0.23053,-0.2661,0.1706,0.9738,1.02
23,0.24165,-0.1562,0.1259,0.9594,0.98
24,0.24177,-0.1562,0.1259,0.9594,0.98
25,0.25286,-0.1376,0.0978,0.933,0.95
26,0.26392,-0.1164,0.0956,0.9325,0.94
27,0.27517,-0.1306,0.1173,0.899,0.92
28,0.28704,-0.1973,0.1562,1.0349,1.07
29,0.2973,-0.1489,0.1796,1.02,1.05
30,0.3084,-0.2454,0.1027,1.126,1.16
31,0.31962,-0.185,0.0606,1.1497,1.17
32,0.33067,-0.1545,0.0797,1.0952,1.11
33,0.34181,-0.1359,0.1329,1.0478,1.06
34,0.35303,-0.1687,0.1584,1.0207,1.05
35,0.35315,-0.1687,0.1584,1.0207,1.05
36,0.36402,-0.154,0.1576,1.0056,1.03
37,0.3752,-0.1337,0.1532,0.9308,0.95
38,0.38654,-0.0937,0.1828,0.9303,0.95
39,0.39756,-0.123,0.2067,0.9052,0.94
40,0.40855,-0.1311,0.2275,0.9648,1.0
41,0.41973,-0.1401,0.2221,0.9958,1.03
42,0.43164,-0.176,0.2409,1.0056,1.05
43,0.44194,-0.1789,0.2192,0.9347,0.98
44,0.45315,-0.1919,0.1679,0.9233,0.96
45,0.46422,-0.1362,0.1415,0.9372,0.96
46,0.46435,-0.1362,0.1415,0.9372,0.96
47,0.47543,-0.1232,0.1068,0.9464,0.96
48,0.48683,-0.1828,0.1036,0.9328,0.96
49,0.4977,-0.165,0.1034,0.9086,0.93
50,0.50872,-0.2554,0.035,0.923,0.96
51,0.51995,-0.3502,0.0367,0.9535,1.02
52,0.53372,-0.2943,0.0533,1.0967,1.14
53,0.54455,-0.1386,0.0765,1.2054,1.22
54,0.55551,-0.1145,-0.0034,1.2638,1.27
55,0.56718,-0.135,-0.0368,1.3009,1.31
56,0.56779,-0.1521,-0.0246,1.3002,1.31
57,0.5814,-0.2371,0.0416,1.243,1.27
58,0.59012,-0.2706,0.0389,1.1656,1.2
59,0.60017,-0.2725,0.0765,1.1162,1.15
60,0.61128,-0.3006,0.1,1.1575,1.2
61,0.62366,-0.2693,0.1183,1.3251,1.36
62,0.6338,-0.1958,0.1049,1.4832,1.5
63,0.64578,-0.1074,0.101,1.5481,1.56
64,0.65627,-0.1457,0.1246,1.4565,1.47
65,0.66756,-0.2183,0.1383,1.3972,1.42
66,0.67706,-0.3004,0.1501,1.3468,1.39
67,0.69097,-0.3619,0.1948,1.3244,1.39
68,0.69136,-0.3619,0.1948,1.3244,1.39
69,0.71155,-0.1606,0.1955,1.4006,1.42
70,0.71197,-0.1606,0.1955,1.4006,1.42
71,0.72197,-0.1074,0.2024,1.3913,1.41
72,0.73194,-0.1135,0.2295,1.2684,1.29
73,0.74354,-0.1284,0.2417,1.1419,1.17
74,0.75544,0.0162,0.185,1.0947,1.11
75,0.76737,-0.0607,0.2673,1.1524,1.18
76,0.77897,-0.0512,0.3785,0.8849,0.96
77,0.79003,-0.1389,0.2512,0.8053,0.85
78,0.80381,-0.3172,0.3714,1.0141,1.13
79,0.80423,-0.3172,0.3714,1.0141,1.13
80,0.81289,-0.3121,0.4112,1.0935,1.21
81,0.82348,-0.1977,0.367,1.1372,1.21
82,0.83433,-0.1455,0.3132,1.1306,1.18
83,0.84567,-0.1833,0.3316,1.0957,1.16
84,0.85723,-0.2652,0.3878,0.9066,1.02
85,0.86896,-0.3964,0.484,0.7473,0.97
86,0.88032,-0.4164,0.5768,0.8409,1.1
87,0.88962,-0.3243,0.5859,0.8776,1.1
88,0.90116,-0.1008,0.5678,0.7498,0.95
89,0.91204,-0.1611,0.5527,0.7522,0.95
90,0.92353,-0.0436,0.5331,0.837,0.99
91,0.93437,-0.0065,0.5331,0.7952,0.96
92,0.94838,-0.0741,0.5624,0.9,1.06
93,0.94915,-0.0815,0.5646,0.912,1.08
94,0.9588,-0.0907,0.5734,0.9892,1.15
95,0.97936,-0.0844,0.5705,1.0327,1.18
96,0.98024,-0.0832,0.5724,1.0224,1.17
97,0.99126,-0.0419,0.5517,0.9621,1.11
98,1.00106,0.0297,0.5546,0.8693,1.03
99,1.01218,0.0756,0.6023,0.7202,0.94
100,1.02876,0.1548,0.7026,0.674,0.99
101,1.03285,0.1743,0.722,0.7034,1.02
102,1.04469,0.2427,0.7281,0.7659,1.08
103,1.05609,0.2877,0.7146,0.7645,1.09
104,1.06744,0.232,0.7298,0.698,1.04
105,1.07938,0.1633,0.7794,0.5451,0.96
106,1.091,0.1736,0.8417,0.3724,0.94
107,1.1024,0.1804,0.8746,0.2741,0.93
108,1.10292,0.1804,0.8746,0.2741,0.93
109,1.11241,0.3517,0.9562,0.2712,1.05
110,1.12458,0.2803,0.879,0.4017,1.01
111,1.13531,0.3018,0.8741,0.4833,1.04
112,1.14594,0.2547,0.8312,0.5355,1.02
113,1.15896,0.1086,0.7527,0.601,0.97
114,1.1718,0.0277,0.7476,0.5008,0.9
115,1.18074,-0.0045,0.7171,0.3819,0.81
116,1.19052,-0.0172,0.7117,0.2871,0.77
117,1.20186,-0.0434,0.6985,0.1769,0.72
118,1.21378,-0.0673,0.6724,0.0743,0.68
119,1.22491,-0.0873,0.6589,-0.0219,0.67
120,1.23604,-0.1692,0.6621,-0.072,0.69
121,1.24595,-0.22,0.676,-0.0645,0.71
122,1.25815,-0.2625,0.665,-0.0974,0.72
123,1.25888,-0.2715,0.6611,-0.1067,0.72
124,1.26898,-0.2935,0.6604,-0.1316,0.73
125,1.28016,-0.2642,0.655,-0.1529,0.72
126,1.29288,-0.249,0.6262,-0.1844,0.7
127,1.30293,-0.2686,0.6345,-0.223,0.72
128,1.31262,-0.2781,0.6457,-0.3097,0.77
129,1.32424,-0.2684,0.6386,-0.3322,0.77
130,1.33619,-0.2864,0.7139,-0.1981,0.79
131,1.34774,-0.3157,0.7422,-0.0562,0.81
132,1.3572,-0.3238,0.7745,0.0225,0.84
133,1.36814,-0.2828,0.8331,0.107,0.89
134,1.37946,-0.1846,0.8512,0.1649,0.89
135,1.38944,-0.1169,0.8654,0.1852,0.89
136,1.40156,-0.135,0.8864,0.0985,0.9
137,1.40198,-0.135,0.8864,0.0985,0.9
138,1.41121,-0.1633,0.8851,0.0364,0.9
139,1.42365,-0.2967,0.8949,-0.0693,0.95
140,1.43359,-0.3925,0.8957,-0.1631,0.99
141,1.44531,-0.5009,0.89,-0.2924,1.06
142,1.45817,-0.5886,0.8707,-0.3874,1.12
143,1.46876,-0.6404,0.847,-0.4475,1.15
144,1.47967,-0.6751,0.8187,-0.4888,1.17
145,1.49106,-0.7147,0.7894,-0.4812,1.17
146,1.50226,-0.7525,0.7662,-0.4306,1.16
147,1.51296,-0.7965,0.754,-0.3474,1.15
148,1.52453,-0.8962,0.8053,-0.1886,1.22
149,1.5252,-0.8962,0.8053,-0.1886,1.22
150,1.53563,-0.9561,0.871,-0.0244,1.29
151,1.54638,-0.9375,0.9609,0.2116,1.36
152,1.55676,-0.7885,1.0723,0.4449,1.4
153,1.57018,-0.5236,1.1463,0.5798,1.39
154,1.58078,-0.2896,1.1465,0.5548,1.31
155,1.59105,-0.1926,1.1937,0.5048,1.31
156,1.60101,-0.1897,1.1522,0.3731,1.23
157,1.6126,-0.3692,1.1123,0.2082,1.19
158,1.62441,-0.5659,1.0381,0.0298,1.18
159,1.63444,-0.6375,0.9492,-0.0864,1.15
160,1.64573,-0.7025,0.8412,-0.1639,1.11
161,1.6581,-0.7484,0.7234,-0.224,1.06
162,1.65868,-0.7484,0.7234,-0.224,1.06
163,1.67127,-0.8227,0.6096,-0.2743,1.06
164,1.68231,-0.8871,0.5463,-0.288,1.08
165,1.69046,-0.9236,0.5163,-0.2948,1.1
166,1.70268,-0.9245,0.4523,-0.3107,1.08
167,1.71284,-0.9018,0.4366,-0.3046,1.05
168,1.72491,-0.863,0.4625,-0.3153,1.03
169,1.73621,-0.7816,0.5128,-0.3503,1.0
170,1.74608,-0.7034,0.572,-0.3349,0.97
171,1.75798,-0.6006,0.6824,-0.2281,0.94
172,1.76912,-0.4499,0.7774,-0.0713,0.9
173,1.77982,-0.3336,0.8216,0.0069,0.89
174,1.78037,-0.3336,0.8216,0.0069,0.89
175,1.79372,-0.218,0.8732,0.0125,0.9
176,1.80395,-0.188,0.8805,-0.0371,0.9
177,1.81181,-0.208,0.8871,-0.0977,0.92
178,1.82315,-0.2845,0.8854,-0.2096,0.95
179,1.83626,-0.3925,0.8439,-0.3413,0.99
180,1.84681,-0.4379,0.8184,-0.3373,0.99
181,1.85846,-0.4315,0.7786,-0.2794,0.93
182,1.86952,-0.4027,0.7588,-0.1812,0.88
183,1.88019,-0.4071,0.7386,-0.0762,0.85
184,1.89154,-0.453,0.6763,0.0335,0.81
185,1.9031,-0.5422,0.561,0.0914,0.79
186,1.91435,-0.6094,0.4909,0.1816,0.8
187,1.9156,-0.6165,0.4679,0.2009,0.8
188,1.92576,-0.6148,0.355,0.2348,0.75
189,1.93839,-0.6414,0.1728,0.012,0.66
190,1.94846,-0.7411,0.0455,-0.1978,0.77
191,1.95816,-1.0306,-0.0334,-0.5455,1.17
192,1.96824,-1.3208,-0.0916,-0.7771,1.54
193,1.97941,-2.0732,-0.3991,-1.1694,2.41
194,1.99091,-3.454,-0.4536,-2.6958,4.4
195,2.00226,-5.0996,0.0101,-4.3846,6.73
196,2.01351,-6.2077,0.8209,-5.0469,8.04
197,2.02589,-5.2693,1.3278,-3.0744,6.24
198,2.03585,-4.0403,1.2887,-1.3888,4.46
199,2.04777,-3.4464,0.8812,-0.6422,3.61
200,2.07064,-3.868,-1.2248,-2.9474,5.01
201,2.07089,-3.868,-1.2248,-2.9474,5.01
202,2.07105,-3.868,-1.2248,-2.9474,5.01
203,2.08043,-1.7786,-2.9601,-3.9417,5.24
204,2.08966,-1.0247,-3.8283,-4.3599,5.89
205,2.1015,2.2706,-4.8876,-1.7672,5.67
206,2.11216,6.378,-4.8221,1.4294,8.12
207,2.12457,8.0077,-1.3807,5.6228,9.88
208,2.13652,8.0077,0.4071,5.3025,9.61
209,2.14678,8.0077,3.6396,2.0761,9.04
210,2.15854,8.0077,0.2063,-4.3692,9.12
211,2.16973,1.8922,-5.8188,1.4863,6.3
212,2.1809,-3.5571,-4.4346,7.8219,9.67
213,2.18189,-3.4154,-3.8393,7.9766,9.49
214,2.1941,0.8581,-2.2499,5.1469,5.68
215,2.20684,2.972,-0.5865,-4.6137,5.52
216,2.21757,2.7231,0.4806,-8.0283,8.49
217,2.22462,2.1245,-0.0635,-6.0175,6.38
218,2.2352,0.0336,-0.3769,-2.2011,2.23
219,2.24716,-1.9371,-0.3153,-0.9195,2.17
220,2.25917,-3.5312,0.8595,-0.3605,3.65
221,2.26983,-2.8735,1.6535,-0.0899,3.32
222,2.28076,-1.6645,2.1623,-0.5623,2.79
223,2.29157,-0.5752,1.9845,-2.0633,2.92
224,2.30347,-0.9766,1.6815,-3.1602,3.71
225,2.30389,-0.9766,1.6815,-3.1602,3.71
226,2.31365,-0.9753,1.0434,-3.2046,3.51
227,2.32867,-1.7735,0.1576,-1.6096,2.4
228,2.33998,-2.286,0.0353,-0.524,2.35
229,2.34846,-1.9823,0.1029,0.2248,2.0
230,2.35893,-0.8698,-0.2017,0.0829,0.9
231,2.36977,-0.4245,-0.5892,-1.2156,1.42
232,2.37999,-0.9267,-0.6854,-1.7655,2.11
233,2.39109,-1.3833,-0.8926,-1.464,2.2
234,2.40212,-1.5697,-0.8613,-0.7145,1.93
235,2.41345,-1.677,-0.4443,0.6108,1.84
236,2.42489,-1.4219,0.0714,1.223,1.88
237,2.4358,-0.851,0.431,1.0793,1.44
238,2.44938,0.2095,0.7703,0.2766,0.84
239,2.44979,0.2095,0.7703,0.2766,0.84
240,2.46107,0.5916,0.8915,-0.7788,1.32
241,2.46906,0.5114,0.9467,-1.3521,1.73
242,2.48201,0.0057,0.9091,-2.0203,2.22
243,2.4924,-0.3578,0.8546,-1.9436,2.15
244,2.50288,-0.5532,0.7437,-1.5046,1.77
245,2.51502,-0.5505,0.5688,-0.7583,1.1
246,2.52623,-0.6502,0.3748,-0.2247,0.78
247,2.53766,-0.8644,0.2253,0.0555,0.9
248,2.54885,-0.9409,0.1266,0.1833,0.97
249,2.56027,-0.9778,0.0057,0.2927,1.02
250,2.56081,-0.9778,0.0057,0.2927,1.02
251,2.57333,-1.0481,-0.0393,0.3159,1.1
252,2.58732,-0.8295,-0.0444,0.2106,0.86
253,2.59212,-0.6971,-0.0761,0.1459,0.72
254,2.60335,-0.4237,-0.1192,-0.0671,0.45
255,2.61534,-0.2808,-0.1079,-0.2308,0.38
256,2.62637,-0.0453,-0.1226,-0.4065,0.43
257,2.63671,0.1203,-0.1507,-0.5,0.54
258,2.64837,0.2307,-0.1912,-0.5516,0.63
259,2.66003,0.2185,-0.2489,-0.4995,0.6
260,2.67044,0.1579,-0.3598,-0.3554,0.53
261,2.68105,0.208,-0.4297,-0.2218,0.53
262,2.69529,0.3583,-0.4624,-0.0356,0.59
263,2.6962,0.379,-0.4568,-0.0058,0.59
264,2.71356,0.6812,-0.2833,0.3743,0.83
265,2.72502,1.301,-0.1438,0.6081,1.44
266,2.73609,1.9225,0.0062,0.6115,2.02
267,2.73688,2.0671,0.055,0.5881,2.15
268,2.74879,2.62,0.4579,0.2605,2.67
269,2.75953,2.9324,0.9653,-0.2543,3.1
270,2.77045,3.2278,1.4133,-0.822,3.62
271,2.78122,3.5935,1.8293,-1.645,4.35
272,2.79249,3.6799,1.9999,-2.5702,4.91
273,2.80404,3.2153,2.0773,-2.6428,4.65
274,2.81876,2.7519,2.07,-2.2377,4.11
275,2.81931,2.7519,2.07,-2.2377,4.11
276,2.835,1.9765,2.6155,-1.5273,3.62
277,2.84812,1.503,3.7344,-1.1792,4.19
278,2.85882,0.9612,5.1862,-1.5932,5.51
279,2.87037,0.8478,6.597,-1.6204,6.85
280,2.87204,1.0846,7.3128,-1.5026,7.54
281,2.88167,1.5055,7.9966,-1.5893,8.29
282,2.89273,1.0824,7.9966,-2.4178,8.42
283,2.90373,1.3279,7.9966,-0.7993,8.15
284,2.91476,2.7951,7.9966,1.4165,8.59
285,2.92608,3.9548,7.9966,4.2918,9.9
286,2.93764,6.6821,7.9966,6.8213,12.45
287,2.94858,8.0077,7.9966,7.9766,13.85
288,2.96204,8.0079,6.9117,7.9766,13.25
289,2.97402,8.0079,4.5068,7.9766,12.17
290,2.97503,8.0079,4.1968,7.9766,12.06
291,2.99238,8.0077,2.7772,7.9766,11.64
292,3.00344,8.0077,2.3052,7.9766,11.54
293,3.004,8.0077,2.3052,7.9766,11.54
294,3.01504,8.0077,2.51,7.9766,11.58
295,3.02683,8.0077,1.7053,7.9766,11.43
296,3.038,8.0077,-1.6861,3.3408,8.84
297,3.05172,8.0077,-2.8394,-2.1402,8.76
298,3.06008,8.0079,-3.8021,-0.2828,8.87
299,3.07035,6.8978,-4.3484,3.2668,8.78
300,3.08753,5.6744,-5.2455,2.7823,8.21
301,3.08778,5.6744,-5.2455,2.7823,8.21
302,3.10408,3.571,-4.8854,1.2271,6.17
303,3.11365,4.0281,-5.0021,1.6529,6.63
304,3.12501,3.0609,-4.7969,0.6132,5.72
305,3.13751,2.0896,-4.0706,-0.4526,4.6
306,3.13802,2.0896,-4.0706,-0.4526,4.6
307,3.14802,2.2674,-3.7824,-0.0493,4.41
308,3.15916,1.4249,-3.0522,1.5963,3.73
309,3.17118,1.0335,-2.4488,1.7446,3.18
310,3.18142,1.6518,-1.9755,0.4569,2.62
311,3.19451,3.2502,-0.9327,-2.4532,4.18
312,3.20694,3.8221,0.5434,-4.4454,5.89
313,3.2152,4.0313,1.3601,-4.9902,6.56
314,3.22581,4.6452,2.3604,-4.2316,6.71
315,3.23797,4.5912,2.6736,-2.3818,5.82
316,3.24871,3.9074,2.3849,-1.3245,4.77
317,3.25992,2.1626,1.9556,-0.287,2.93
318,3.26034,2.1626,1.9556,-0.287,2.93
319,3.26992,0.9482,1.7263,0.5788,2.05
320,3.28132,0.5022,1.2616,1.5609,2.07
321,3.29212,0.3416,1.0801,1.8362,2.16
322,3.30602,-0.1057,1.0676,1.2267,1.63
323,3.32113,-0.4213,0.9782,0.2959,1.11
324,3.32653,-0.498,0.9787,0.0555,1.1
325,3.33678,-0.5693,0.8162,-0.1499,1.01
326,3.3486,-1.0223,0.3074,0.0115,1.07
327,3.35922,-1.568,0.0309,0.1474,1.58
328,3.37009,-1.7439,-0.1255,0.2116,1.76
329,3.38188,-1.6955,-0.1301,-0.029,1.7
330,3.39294,-1.4718,0.1102,-0.3723,1.52
331,3.40326,-1.0135,0.0775,-0.7089,1.24
332,3.41681,-0.4096,0.257,-0.9886,1.1
333,3.41723,-0.4096,0.257,-0.9886,1.1
334,3.43051,0.186,0.3284,-1.0551,1.12
335,3.4381,0.3021,0.3172,-1.0468,1.13
336,3.44867,0.1474,0.3321,-0.9464,1.01
337,3.46026,-0.2222,0.3328,-0.5511,0.68
338,3.47132,-0.4008,0.0922,-0.0261,0.41
339,3.48364,-0.5742,-0.0886,0.3594,0.68
340,3.49491,-0.807,-0.242,0.6948,1.09
341,3.50471,-0.7745,-0.4079,0.6115,1.07
342,3.51532,-0.6123,-0.5503,0.3359,0.89
343,3.52756,-0.3956,-0.6976,-0.1414,0.81
344,3.5383,-0.0976,-0.811,-0.3781,0.9
345,3.53882,-0.0976,-0.811,-0.3781,0.9
346,3.55218,0.0913,-0.6068,0.0428,0.62
347,3.56267,0.5039,-0.5037,0.4715,0.85
348,3.57043,1.0093,-0.3295,0.7908,1.32
349,3.58187,1.4446,-0.0842,0.8526,1.68
350,3.59311,1.7757,0.2094,0.5746,1.88
351,3.605,1.8634,0.389,0.1044,1.91
352,3.61686,1.9005,0.4591,-0.0449,1.96
353,3.62755,2.0224,0.5111,0.3528,2.12
354,3.63939,2.224,0.4554,0.8592,2.43
355,3.64909,2.3793,0.4344,1.416,2.8
356,3.66136,2.448,0.3817,1.8513,3.09
357,3.6718,2.3847,0.3448,1.813,3.02
358,3.67231,2.3847,0.3448,1.813,3.02
359,3.68292,2.0359,0.4862,1.6368,2.66
360,3.69722,1.9179,0.6765,1.4162,2.48
361,3.7121,0.8688,1.051,1.0412,1.72
362,3.71855,-0.2149,1.5443,1.181,1.96
363,3.72801,-1.2336,2.7376,1.8975,3.55
364,3.738,-1.2451,4.9834,2.9687,5.93
365,3.74889,-0.0683,7.4853,4.0854,8.53
366,3.76052,-0.4872,7.9966,3.9452,8.93
367,3.77083,-2.3121,7.9966,4.242,9.34
368,3.78176,-2.1248,7.9966,7.1284,10.92
369,3.79356,-1.0662,7.9966,7.9766,11.34
370,3.80472,-0.317,7.9966,7.9766,11.3
371,3.81583,2.4519,6.576,7.9766,10.62
372,3.81673,3.3851,5.9445,7.9766,10.51
373,3.83062,7.2015,3.6042,7.9766,11.33
374,3.84619,8.0077,4.1909,7.4628,11.72
375,3.85013,8.0077,4.8767,6.5831,11.46
376,3.86056,8.0077,5.9232,5.9503,11.6
377,3.8716,8.0077,6.7583,6.5269,12.34
378,3.88344,8.0077,7.005,7.9766,13.3
379,3.89549,8.0077,4.8247,7.9766,12.29
380,3.90518,8.0077,1.5027,7.9766,11.4
381,3.91674,8.0077,-3.3944,4.8119,9.94
382,3.92782,8.0077,-4.9459,4.7729,10.55
383,3.94096,7.1157,-5.9984,7.2354,11.79
384,3.94143,7.1157,-5.9984,7.2354,11.79
385,3.95671,8.0077,-7.0901,3.0843,11.13
386,3.96121,7.9532,-6.9592,0.9242,10.61
387,3.97134,5.6871,-6.4843,-2.5827,9.0
388,3.98217,4.0821,-6.5708,-3.7719,8.61
389,3.99374,2.8924,-6.3743,-2.8462,7.56
390,4.00562,2.0327,-5.3583,-2.7827,6.37
391,4.01762,1.4764,-3.5498,-2.87,4.8
392,4.02774,2.0368,-1.9328,-2.2353,3.59
393,4.03962,2.1145,-0.2367,-0.7885,2.27
394,4.04958,2.1661,1.5166,0.7845,2.76
395,4.06188,1.7713,3.5541,2.1215,4.5
396,4.07219,1.0501,3.9415,2.1916,4.63
397,4.08566,0.1274,2.774,1.1827,3.02
398,4.08618,0.1274,2.774,1.1827,3.02
399,4.10434,-1.0572,0.8121,-0.2897,1.36
400,4.11869,-0.767,-0.5906,-1.2432,1.58
401,4.11884,-0.767,-0.5906,-1.2432,1.58
402,4.12612,-0.4474,-0.6151,-1.5258,1.7
403,4.13697,-0.2237,-0.1473,-1.304,1.33
404,4.14864,0.1518,0.3768,-0.6972,0.81
405,4.1613,0.091,1.2755,0.2512,1.3
406,4.17199,0.4035,1.587,0.8497,1.84
407,4.18306,0.7213,1.963,1.4189,2.53
408,4.19686,0.3148,2.1323,1.1282,2.43
409,4.19768,0.1875,2.1174,0.9613,2.33
410,4.21407,-0.0375,2.1423,-0.2318,2.16
411,4.2178,0.0744,2.2048,-0.4131,2.24
412,4.22744,0.5749,2.5161,-1.0551,2.79
413,4.23921,0.7626,2.8068,-1.454,3.25
414,4.24947,0.3847,2.9937,-1.1904,3.24
415,4.26179,-0.3045,2.9465,-0.3131,2.98
416,4.27229,-0.5681,2.8854,0.2961,2.96
417,4.2837,-0.5708,2.5256,0.6496,2.67
418,4.29547,-0.7467,2.2214,0.5617,2.41
419,4.30685,-0.9511,2.0038,0.3636,2.25
420,4.31726,-0.9367,1.7109,0.1249,1.95
421,4.33099,-0.6815,1.1197,-0.1319,1.32
422,4.33142,-0.6815,1.1197,-0.1319,1.32
423,4.34591,-0.9287,0.7227,-0.4201,1.25
424,4.35092,-1.0374,0.6135,-0.4812,1.3
425,4.36114,-1.1109,0.3736,-0.5587,1.3
426,4.37246,-0.9514,0.1506,-0.5403,1.1
427,4.38311,-0.7215,0.0431,-0.4771,0.87
428,4.39485,-0.4325,0.0382,-0.5741,0.72
429,4.40718,-0.4748,0.1586,-0.694,0.86
430,4.41734,-0.5957,0.3091,-0.5802,0.89
431,4.42841,-0.6675,0.4405,-0.3437,0.87
432,4.4393,-0.5771,0.6079,-0.1172,0.85
433,4.45277,-0.4193,0.7176,-0.1314,0.84
434,4.46951,-0.4477,0.8761,-0.3642,1.05
435,4.47004,-0.4477,0.8761,-0.3642,1.05
436,4.47422,-0.4687,0.9196,-0.4065,1.11
437,4.49457,-0.5876,0.9978,-0.3928,1.22
438,4.49567,-0.604,0.9904,-0.3664,1.22
439,4.50627,-0.6844,0.943,-0.1609,1.18
440,4.5179,-0.7877,0.8844,0.0653,1.19
441,4.52897,-0.8806,0.7945,0.1161,1.19
442,4.54032,-0.9678,0.74,0.0843,1.22
443,4.55403,-0.9585,0.7337,0.0491,1.21
444,4.57005,-0.7711,0.753,-0.2179,1.1
445,4.57221,-0.7711,0.753,-0.2179,1.1
446,4.58263,-0.6556,0.7525,-0.4392,1.09
447,4.59451,-0.5693,0.7229,-0.5973,1.1
448,4.60593,-0.5229,0.6858,-0.6825,1.1
449,4.6177,-0.5178,0.6567,-0.7057,1.09
450,4.62958,-0.551,0.5869,-0.7341,1.09
451,4.64019,-0.6346,0.5746,-0.716,1.12
452,4.64105,-0.6473,0.5764,-0.7096,1.12
453,4.65092,-0.648,0.5705,-0.6759,1.1
454,4.66501,-0.6297,0.5421,-0.6185,1.04
455,4.67929,-0.7291,0.6062,-0.3354,1.01
456,4.68299,-0.7377,0.6118,-0.2697,1.0
457,4.6948,-0.7259,0.6042,0.0052,0.94
458,4.70639,-0.7088,0.6208,0.2062,0.96
459,4.7178,-0.6353,0.6694,0.3013,0.97
460,4.72815,-0.5095,0.6472,0.2724,0.87
461,4.73984,-0.3966,0.6308,0.0968,0.75
462,4.7511,-0.3604,0.6223,-0.203,0.75
463,4.76132,-0.401,0.6045,-0.4121,0.83
464,4.77343,-0.5105,0.6079,-0.5274,0.95
465,4.78491,-0.6082,0.6069,-0.4521,0.97
466,4.78582,-0.6272,0.6028,-0.4177,0.96
467,4.79485,-0.659,0.5859,-0.3053,0.93
468,4.80968,-0.6651,0.5717,-0.0129,0.88
469,4.82444,-0.6197,0.5866,0.1312,0.86
470,4.82962,-0.5977,0.5861,0.1293,0.85
471,4.84001,-0.6077,0.5944,0.0665,0.85
472,4.85018,-0.6538,0.6408,-0.0122,0.92
473,4.8621,-0.6558,0.6978,-0.1082,0.96
474,4.87348,-0.5608,0.7141,-0.2091,0.93
475,4.8846,-0.4609,0.7349,-0.3017,0.92
476,4.89478,-0.4088,0.7571,-0.3811,0.94
477,4.9067,-0.3468,0.8055,-0.4497,0.99
478,4.9181,-0.3111,0.8719,-0.5313,1.07
479,4.9186,-0.3111,0.8719,-0.5313,1.07
480,4.93155,-0.2901,0.933,-0.5694,1.13
481,4.94808,-0.2559,1.0151,-0.4966,1.16
482,4.95148,-0.249,1.0276,-0.4856,1.16
483,4.96124,-0.2048,1.0615,-0.4524,1.17
484,4.97323,-0.1633,1.1072,-0.4131,1.19
485,4.98457,-0.113,1.1949,-0.4131,1.27
486,4.99535,-0.0505,1.2347,-0.4732,1.32
487,5.00824,-0.0238,1.2968,-0.5399,1.4
488,5.01861,-0.0683,1.3429,-0.5296,1.45
489,5.02855,-0.1293,1.3654,-0.4883,1.46
490,5.03994,-0.1992,1.3542,-0.4426,1.44
491,5.0513,-0.241,1.3471,-0.3703,1.42
492,5.05178,-0.241,1.3471,-0.3703,1.42
493,5.06212,-0.2207,1.3439,-0.289,1.39
494,5.07664,-0.1101,1.3407,-0.2382,1.37
495,5.09653,0.0869,1.2904,-0.2299,1.31
496,5.09685,0.0869,1.2904,-0.2299,1.31
497,5.10645,0.121,1.268,-0.254,1.3
498,5.11755,0.1245,1.2215,-0.3122,1.27
499,5.12875,0.1193,1.1605,-0.3566,1.22
500,5.16184,0.0045,0.967,-0.4646,1.07
501,5.16228,-0.0011,0.9633,-0.4624,1.07
502,5.16247,-0.0011,0.9633,-0.4624,1.07
503,5.17194,0.0138,0.9543,-0.437,1.05
504,5.18299,0.0771,0.9316,-0.4162,1.02
505,5.1972,0.1223,0.8807,-0.3542,0.96
506,5.19772,0.1223,0.8807,-0.3542,0.96
507,5.2146,-0.0172,0.8541,-0.3058,0.91
508,5.21821,-0.0815,0.8558,-0.2965,0.91
509,5.22815,-0.1863,0.8583,-0.288,0.92
510,5.23981,-0.2334,0.8275,-0.3166,0.92
511,5.25113,-0.241,0.8238,-0.3356,0.92
512,5.26209,-0.2087,0.8343,-0.3447,0.93
513,5.27424,-0.1565,0.7979,-0.3925,0.9
514,5.28478,-0.2068,0.8033,-0.4062,0.92
515,5.29576,-0.3026,0.8429,-0.3876,0.98
516,5.30918,-0.3822,0.8578,-0.373,1.01
