ID,time,gFx,gFy,gFz,TgF
0,0.00179,-0.3123,0.3785,0.579,0.76
1,0.00196,-0.3123,0.3785,0.579,0.76
2,0.00996,-0.2654,0.3756,0.6433,0.79
3,0.01997,-0.2021,0.3611,0.7366,0.84
4,0.03039,-0.132,0.3509,0.7935,0.88
5,0.04153,-0.1201,0.3062,0.814,0.88
6,0.05289,-0.1597,0.3057,0.8214,0.89
7,0.0639,-0.2234,0.3022,0.826,0.91
8,0.07562,-0.2657,0.2935,0.8099,0.9
9,0.08619,-0.2701,0.2673,0.8016,0.89
10,0.09719,-0.2733,0.2431,0.8143,0.89
11,0.1084,-0.2833,0.2204,0.8433,0.92
12,0.11998,-0.2842,0.2121,0.8333,0.91
13,0.12014,-0.2842,0.2121,0.8333,0.91
14,0.13063,-0.2825,0.208,0.8143,0.89
15,0.14172,-0.2725,0.1955,0.8099,0.88
16,0.15298,-0.2564,0.1684,0.8214,0.88
17,0.16394,-0.2366,0.132,0.8636,0.91
18,0.17506,-0.1767,0.0775,0.9113,0.93
19,0.18625,-0.1396,0.0106,0.9692,0.98
20,0.19732,-0.125,-0.0371,0.9936,1.0
21,0.20918,-0.1763,-0.0136,1.1079,1.12
22,0.21972,-0.229,-0.009,1.1143,1.14
23,0.23078,-0.211,-0.0229,1.1353,1.15
24,0.23097,-0.1985,-0.0288,1.1448,1.16
25,0.24185,-0.2168,0.0367,1.3276,1.35
26,0.2531,-0.1245,0.0418,1.2039,1.21
27,0.26409,-0.0192,-0.0881,1.1267,1.13
28,0.27527,0.1804,-0.0835,1.2162,1.23
29,0.2864,0.2178,-0.0603,1.1793,1.2
30,0.2974,0.0448,-0.1133,1.0786,1.09
31,0.30856,-0.1765,-0.0803,1.0339,1.05
32,0.31979,-0.121,-0.1035,1.0759,1.09
33,0.33082,0.0536,-0.1196,1.1094,1.12
34,0.342,0.1184,-0.1915,1.0486,1.07
35,0.34212,0.1184,-0.1915,1.0486,1.07
36,0.3538,0.2549,-0.3471,0.7515,0.87
37,0.36419,0.2398,-0.2621,0.5224,0.63
38,0.37534,0.0734,0.0172,0.3171,0.33
39,0.38642,-0.0236,0.0711,0.4701,0.48
40,0.39755,0.0522,0.0005,0.6958,0.7
41,0.40882,0.2244,-0.072,0.9257,0.96
42,0.4199,0.2852,-0.0537,1.0871,1.13
43,0.43093,0.2923,-0.0231,1.1057,1.14
44,0.44216,0.3087,0.0079,1.0469,1.09
45,0.44228,0.3087,0.0079,1.0469,1.09
46,0.4532,0.3277,0.0321,1.0117,1.06
47,0.46434,0.3526,0.0519,1.0461,1.11
48,0.47612,0.4137,0.0641,1.1829,1.25
49,0.48656,0.3942,0.0487,1.2442,1.31
50,0.4977,0.3355,0.0142,1.3014,1.34
51,0.50889,0.3023,0.011,1.361,1.39
52,0.52005,0.3888,0.1154,1.3967,1.45
53,0.53111,0.3922,0.1452,1.3295,1.39
54,0.54233,0.4372,0.1825,1.2423,1.33
55,0.55334,0.475,0.1752,1.2494,1.35
56,0.55347,0.475,0.1752,1.2494,1.35
57,0.56448,0.4367,0.141,1.2687,1.35
58,0.57562,0.5061,0.1899,1.2555,1.37
59,0.58673,0.5754,0.129,1.3195,1.45
60,0.59789,0.6209,0.0748,1.1788,1.33
61,0.60904,0.5774,0.1554,1.145,1.29
62,0.62081,0.3346,0.1943,1.1644,1.23
63,0.63128,0.0646,0.1781,1.2049,1.22
64,0.64571,-0.1347,0.1713,1.4287,1.45
65,0.64631,-0.1345,0.1674,1.446,1.46
66,0.65547,-0.1052,0.1354,1.4387,1.45
67,0.66661,0.0089,0.0792,1.3178,1.32
68,0.67818,0.057,-0.0183,1.1079,1.11
69,0.6904,0.1721,0.1246,1.0569,1.08
70,0.70222,0.2273,0.1598,1.0974,1.13
71,0.71201,0.285,0.1474,1.1771,1.22
72,0.72244,0.2955,0.1615,1.3031,1.35
73,0.7353,0.2337,0.194,1.4213,1.45
74,0.74559,0.211,0.2085,1.3432,1.38
75,0.75608,0.1988,0.2077,1.1942,1.23
76,0.76979,0.1789,0.2588,0.9462,1.0
77,0.77042,0.185,0.2715,0.9159,0.97
78,0.77929,0.2007,0.2893,0.8632,0.93
79,0.78957,0.2,0.2888,0.8771,0.94
80,0.80165,0.2178,0.3225,0.9071,0.99
81,0.81234,0.2632,0.3501,0.9225,1.02
82,0.82366,0.3182,0.3682,0.8715,1.0
83,0.83455,0.3052,0.3966,0.8033,0.95
84,0.84525,0.2974,0.3975,0.7332,0.89
85,0.8561,0.2154,0.3861,0.7273,0.85
86,0.86749,0.0536,0.4261,0.75,0.86
87,0.87828,-0.0216,0.444,0.7615,0.88
88,0.8897,0.0199,0.4317,0.7703,0.88
89,0.90526,0.1298,0.4733,0.817,0.95
90,0.90574,0.1298,0.4733,0.817,0.95
91,0.91535,0.2173,0.4835,0.8089,0.97
92,0.92668,0.2591,0.5236,0.6396,0.87
93,0.93759,0.2689,0.5549,0.4156,0.74
94,0.9482,0.2769,0.5805,0.3223,0.72
95,0.95788,0.2645,0.6176,0.2944,0.73
96,0.96784,0.1487,0.6479,0.3328,0.74
97,0.97963,-0.0605,0.6665,0.516,0.85
98,0.99107,-0.07,0.6347,0.6995,0.95
99,1.00478,-0.2615,0.6763,0.8856,1.14
100,1.02518,-0.1137,0.6225,0.5294,0.83
101,1.02611,-0.0922,0.6323,0.4786,0.8
102,1.03303,-0.0541,0.6795,0.3936,0.79
103,1.04477,-0.0602,0.7083,0.4278,0.83
104,1.05606,-0.0683,0.7391,0.4969,0.89
105,1.06709,-0.0658,0.741,0.5798,0.94
106,1.06802,-0.0566,0.7391,0.5932,0.95
107,1.07847,-0.0363,0.7449,0.6059,0.96
108,1.0886,-0.0409,0.7637,0.5597,0.95
109,1.10522,-0.0204,0.7899,0.4491,0.91
110,1.11666,0.017,0.8583,0.2143,0.88
111,1.12326,0.0209,0.8505,0.249,0.89
112,1.13561,-0.0724,0.8243,0.4039,0.92
113,1.1478,-0.177,0.8263,0.4969,0.98
114,1.15703,-0.1907,0.7857,0.5282,0.97
115,1.17016,-0.2031,0.8018,0.6711,1.07
116,1.17932,-0.1807,0.8101,0.742,1.11
117,1.18998,-0.1394,0.8138,0.7645,1.13
118,1.2017,-0.1281,0.8065,0.6653,1.05
119,1.21287,-0.1543,0.8094,0.5714,1.0
120,1.21365,-0.1577,0.8094,0.5497,0.99
121,1.22398,-0.1821,0.8053,0.4632,0.95
122,1.2388,-0.2652,0.8006,0.3611,0.92
123,1.25003,-0.2994,0.7769,0.3181,0.89
124,1.25644,-0.305,0.7742,0.3245,0.89
125,1.26819,-0.3287,0.7938,0.3745,0.94
126,1.27997,-0.3223,0.7911,0.4232,0.95
127,1.29023,-0.2764,0.7576,0.3938,0.9
128,1.30197,-0.2508,0.7036,0.3118,0.81
129,1.31367,-0.3079,0.679,0.2834,0.8
130,1.32595,-0.4176,0.6755,0.2979,0.85
131,1.3266,-0.433,0.6733,0.3054,0.86
132,1.34669,-0.5053,0.6438,0.4083,0.91
133,1.34767,-0.5031,0.6408,0.4251,0.92
134,1.35998,-0.4494,0.6333,0.5375,0.94
135,1.37201,-0.4225,0.6648,0.6509,1.02
136,1.38002,-0.4274,0.5803,0.6606,0.98
137,1.39008,-0.3243,0.6697,0.6157,0.97
138,1.40231,-0.3385,0.6426,0.6643,0.98
139,1.41467,-0.3057,0.6682,0.5873,0.94
140,1.42408,-0.3038,0.668,0.5697,0.93
141,1.43574,-0.3319,0.6926,0.5636,0.95
142,1.4469,-0.3888,0.7203,0.5734,1.0
143,1.45684,-0.3854,0.7159,0.5617,0.99
144,1.47277,-0.3575,0.7293,0.592,1.01
145,1.48219,-0.3434,0.7422,0.6343,1.03
146,1.49024,-0.3231,0.7505,0.699,1.08
147,1.50168,-0.3026,0.7403,0.7676,1.11
148,1.51442,-0.3302,0.7469,0.8458,1.18
149,1.51523,-0.3302,0.7469,0.8458,1.18
150,1.52458,-0.3646,0.7564,0.8072,1.16
151,1.53638,-0.3903,0.7627,0.7207,1.12
152,1.54721,-0.4081,0.795,0.6682,1.12
153,1.55863,-0.3551,0.8053,0.6626,1.1
154,1.56815,-0.2855,0.8155,0.6838,1.1
155,1.58053,-0.2241,0.8595,0.6956,1.13
156,1.58986,-0.2193,0.8683,0.6662,1.12
157,1.60234,-0.2681,0.8768,0.5939,1.09
158,1.61342,-0.3285,0.8817,0.5744,1.1
159,1.62503,-0.3666,0.8536,0.5851,1.1
160,1.6372,-0.378,0.8546,0.6147,1.12
161,1.64684,-0.3373,0.84,0.6183,1.1
162,1.65718,-0.3329,0.8378,0.6174,1.09
163,1.66873,-0.37,0.8583,0.6115,1.12
164,1.67974,-0.3756,0.8409,0.5969,1.1
165,1.69185,-0.4032,0.8343,0.593,1.1
166,1.69306,-0.4125,0.837,0.59,1.1
167,1.71533,-0.4108,0.871,0.5597,1.11
168,1.71582,-0.4108,0.871,0.5597,1.11
169,1.72581,-0.3346,0.8868,0.516,1.08
170,1.73559,-0.3209,0.8893,0.4806,1.06
171,1.74677,-0.3392,0.8918,0.4185,1.04
172,1.75813,-0.3793,0.8783,0.3836,1.03
173,1.76943,-0.4044,0.8639,0.3926,1.03
174,1.78023,-0.3908,0.8583,0.3794,1.02
175,1.79109,-0.3859,0.8492,0.3313,0.99
176,1.80273,-0.4315,0.8497,0.3022,1.0
177,1.81374,-0.4978,0.8419,0.279,1.02
178,1.825,-0.5417,0.8414,0.2942,1.04
179,1.83724,-0.5412,0.8292,0.3482,1.05
180,1.84802,-0.5004,0.8055,0.4071,1.03
181,1.85785,-0.4711,0.7992,0.4173,1.02
182,1.86873,-0.4472,0.7938,0.3955,0.99
183,1.88033,-0.3978,0.8072,0.345,0.96
184,1.89086,-0.3763,0.8094,0.2734,0.93
185,1.90242,-0.393,0.8346,0.1913,0.94
186,1.91411,-0.3905,0.8407,0.1349,0.94
187,1.91456,-0.3905,0.8407,0.1349,0.94
188,1.92587,-0.3678,0.838,0.1251,0.92
189,1.93583,-0.3573,0.8346,0.1271,0.92
190,1.95077,-0.3543,0.8439,0.108,0.92
191,1.96315,-0.349,0.849,0.0403,0.92
192,1.97032,-0.3583,0.8453,-0.008,0.92
193,1.98085,-0.3583,0.8346,-0.0295,0.91
194,1.99147,-0.3187,0.8165,-0.0234,0.88
195,2.00336,-0.2896,0.8126,-0.0552,0.86
196,2.0147,-0.3047,0.8216,-0.075,0.88
197,2.02645,-0.3409,0.8184,-0.0881,0.89
198,2.03869,-0.3751,0.8028,-0.1143,0.89
199,2.03932,-0.3751,0.8028,-0.1143,0.89
200,2.07082,-0.5302,0.7982,-0.2618,0.99
201,2.07126,-0.5302,0.7982,-0.2618,0.99
202,2.07212,-0.5478,0.8055,-0.2736,1.01
203,2.07919,-0.5911,0.8346,-0.3044,1.07
204,2.09108,-0.5771,0.8571,-0.3229,1.08
205,2.10262,-0.5444,0.868,-0.3036,1.07
206,2.11423,-0.4946,0.8822,-0.277,1.05
207,2.12565,-0.4269,0.8957,-0.2506,1.02
208,2.1356,-0.3697,0.9005,-0.2296,1.0
209,2.14783,-0.3385,0.9128,-0.2042,0.99
210,2.15836,-0.3277,0.9198,-0.18,0.99
211,2.16991,-0.3104,0.9269,-0.1307,0.99
212,2.17982,-0.2913,0.9364,-0.0796,0.98
213,2.19221,-0.2845,0.9445,-0.0085,0.99
214,2.20293,-0.294,0.9597,0.0648,1.01
215,2.20355,-0.294,0.9597,0.0648,1.01
216,2.21475,-0.3069,0.965,0.1017,1.02
217,2.22695,-0.3162,0.9658,0.0973,1.02
218,2.23715,-0.3194,0.9714,0.0601,1.02
219,2.24678,-0.3104,0.9804,0.0052,1.03
220,2.2582,-0.2791,0.9809,-0.0483,1.02
221,2.26895,-0.2703,0.967,-0.0811,1.01
222,2.28122,-0.3131,0.9475,-0.1192,1.0
223,2.2931,-0.35,0.922,-0.1341,1.0
224,2.30276,-0.4013,0.9013,-0.1394,1.0
225,2.31477,-0.4692,0.8805,-0.1468,1.01
226,2.32552,-0.4858,0.8827,-0.1355,1.02
227,2.33915,-0.4657,0.8927,-0.1079,1.01
228,2.33962,-0.4657,0.8927,-0.1079,1.01
229,2.35379,-0.4516,0.8834,-0.1324,1.0
230,2.36028,-0.4753,0.8751,-0.1595,1.01
231,2.3702,-0.5317,0.8795,-0.1878,1.04
232,2.38112,-0.5713,0.8702,-0.2076,1.06
233,2.39241,-0.5537,0.8578,-0.1803,1.04
234,2.40333,-0.499,0.8529,-0.1187,1.0
235,2.41569,-0.4208,0.8529,-0.0698,0.95
236,2.42599,-0.4218,0.8636,-0.063,0.96
237,2.43686,-0.4743,0.8827,-0.0681,1.0
238,2.44835,-0.4958,0.9108,-0.0456,1.04
239,2.46277,-0.4491,0.9274,0.0181,1.03
240,2.46321,-0.4491,0.9274,0.0181,1.03
241,2.47498,-0.4113,0.9384,0.0628,1.03
242,2.48177,-0.3866,0.9555,0.1007,1.04
243,2.49221,-0.3458,0.9677,0.1425,1.04
244,2.50361,-0.3094,0.9667,0.1647,1.03
245,2.51466,-0.325,0.9623,0.1508,1.03
246,2.52594,-0.3859,0.9494,0.1068,1.03
247,2.53659,-0.4589,0.9245,0.053,1.03
248,2.54758,-0.4973,0.9001,0.0045,1.03
249,2.55906,-0.518,0.8798,-0.0442,1.02
250,2.56991,-0.5461,0.89,-0.0796,1.05
251,2.58231,-0.5473,0.9047,-0.1158,1.06
252,2.59526,-0.497,0.9045,-0.1565,1.04
253,2.59604,-0.4841,0.9015,-0.1631,1.04
254,2.60831,-0.4426,0.8844,-0.1825,1.01
255,2.62584,-0.4438,0.8558,-0.2157,0.99
256,2.62634,-0.4438,0.8558,-0.2157,0.99
257,2.63699,-0.4794,0.8409,-0.2316,1.0
258,2.64858,-0.5319,0.8509,-0.2215,1.03
259,2.65972,-0.5559,0.8605,-0.1832,1.04
260,2.66972,-0.5232,0.8592,-0.1521,1.02
261,2.6824,-0.4679,0.8527,-0.1373,0.98
262,2.69574,-0.456,0.8549,-0.1453,0.98
263,2.70838,-0.4589,0.8524,-0.1595,0.98
264,2.70878,-0.4589,0.8524,-0.1595,0.98
265,2.72527,-0.4567,0.8697,-0.1023,0.99
266,2.73697,-0.424,0.8756,-0.0662,0.98
267,2.74847,-0.4003,0.891,-0.0669,0.98
268,2.75922,-0.4,0.9015,-0.0974,0.99
269,2.76021,-0.4042,0.9037,-0.1091,1.0
270,2.77222,-0.4171,0.9115,-0.1556,1.01
271,2.78127,-0.4264,0.9147,-0.1519,1.02
272,2.79395,-0.4237,0.9171,-0.1087,1.02
273,2.80419,-0.4115,0.9081,-0.0784,1.0
274,2.81824,-0.4188,0.9098,-0.0429,1.0
275,2.83284,-0.4047,0.8964,-0.0175,0.98
276,2.83312,-0.4047,0.8964,-0.0175,0.98
277,2.84734,-0.4032,0.8888,-0.0031,0.98
278,2.85962,-0.4215,0.8979,-0.0219,0.99
279,2.86996,-0.4369,0.9057,-0.0542,1.01
280,2.88138,-0.4347,0.912,-0.0862,1.01
281,2.89381,-0.4271,0.8974,-0.1128,1.0
282,2.89448,-0.4271,0.8974,-0.1128,1.0
283,2.90424,-0.4347,0.8998,-0.1358,1.01
284,2.91544,-0.4523,0.8908,-0.1783,1.01
285,2.9261,-0.467,0.882,-0.1959,1.02
286,2.94084,-0.4753,0.8918,-0.1732,1.03
287,2.95394,-0.4472,0.8854,-0.1624,1.01
288,2.96098,-0.4367,0.8812,-0.1673,1.0
289,2.97061,-0.4359,0.8918,-0.169,1.01
290,2.98245,-0.4484,0.9064,-0.1683,1.03
291,2.99368,-0.4499,0.9152,-0.1387,1.03
292,3.00593,-0.4249,0.9247,-0.0921,1.02
293,3.01547,-0.3878,0.9245,-0.0468,1.0
294,3.0258,-0.3663,0.904,-0.0163,0.98
295,3.03894,-0.4096,0.8617,-0.0862,0.96
296,3.05074,-0.4345,0.7992,-0.1673,0.92
297,3.0515,-0.4406,0.7811,-0.192,0.92
298,3.0614,-0.4931,0.7188,-0.2831,0.92
299,3.07102,-0.554,0.646,-0.3163,0.91
300,3.0851,-0.554,0.429,-0.2626,0.75
301,3.09149,-0.6267,0.2903,-0.2257,0.73
302,3.10317,-1.0086,0.1234,-0.0298,1.02
303,3.11407,-1.4678,-0.1248,0.2297,1.49
304,3.12622,-1.9105,-0.7949,0.3745,2.1
305,3.13757,-2.3307,-2.0916,-0.9578,3.27
306,3.1477,-3.5624,-3.0461,-3.3661,5.77
307,3.16119,-6.2006,-3.0634,-6.3941,9.42
308,3.17065,-5.9834,-2.7402,-6.0895,8.97
309,3.18258,-3.5512,-2.6584,-4.4527,6.29
310,3.19302,-2.6028,-2.4028,-3.9099,5.28
311,3.20437,-3.4623,-2.1979,-4.0922,5.79
312,3.21671,-3.894,-2.524,-4.2485,6.29
313,3.21739,-3.7151,-2.7001,-4.1767,6.21
314,3.22773,-1.6743,-3.2908,-3.7961,5.3
315,3.23781,0.359,-3.6165,-3.3702,4.96
316,3.24802,2.0525,-4.1417,-2.1585,5.1
317,3.25967,4.6413,-5.2433,0.7244,7.04
318,3.27103,8.0079,-4.7833,6.07,11.13
319,3.28265,8.0079,-1.8771,7.9766,11.46
320,3.29578,8.0079,2.8798,2.6077,8.9
321,3.31027,8.0079,4.1787,-7.5084,11.75
322,3.31074,8.0079,4.1787,-7.5084,11.75
323,3.32686,4.5611,-3.9285,1.4641,6.2
324,3.338,-1.3286,-2.4292,7.1225,7.64
325,3.34823,0.3365,-1.698,5.5844,5.85
326,3.36081,2.4116,-0.8657,-0.7196,2.66
327,3.36153,2.4116,-0.8657,-0.7196,2.66
328,3.37148,2.2345,-0.556,-4.5756,5.12
329,3.38206,1.6012,-0.5357,-4.9689,5.25
330,3.39448,0.6834,-1.1559,-3.1926,3.46
331,3.40508,-0.3548,-0.9363,-2.2494,2.46
332,3.41545,-0.9221,-0.4521,-1.4782,1.8
333,3.42923,-1.0523,0.2426,-0.7211,1.3
334,3.44272,-0.6771,0.4293,-1.2498,1.48
335,3.44319,-0.6771,0.4293,-1.2498,1.48
336,3.46117,-0.7391,0.411,-2.6132,2.75
337,3.47189,-0.7555,0.2649,-2.8841,2.99
338,3.48263,-0.7801,0.1088,-3.0629,3.16
339,3.49583,-0.8869,-0.0295,-3.1391,3.26
340,3.49757,-0.9265,-0.0669,-3.093,3.23
341,3.50553,-1.0855,-0.1888,-2.7969,3.01
342,3.51665,-1.3152,-0.3254,-1.9968,2.41
343,3.52827,-1.3066,-0.4507,-1.4943,2.04
344,3.5392,-1.2873,-0.3967,-1.2495,1.84
345,3.55114,-1.182,-0.2064,-1.0775,1.61
346,3.56163,-0.9954,0.0611,-1.0419,1.44
347,3.57439,-0.6683,0.3252,-0.9161,1.18
348,3.58777,-0.1965,0.5048,-0.7016,0.89
349,3.5882,-0.1965,0.5048,-0.7016,0.89
350,3.60576,-0.0011,0.7215,-0.4653,0.86
351,3.61619,0.0199,0.8053,-0.3004,0.86
352,3.62825,-0.0395,0.8331,-0.1431,0.85
353,3.63924,-0.1584,0.8267,-0.0967,0.85
354,3.63985,-0.1584,0.8267,-0.0967,0.85
355,3.64947,-0.403,0.7515,-0.1309,0.86
356,3.66045,-0.5774,0.7183,-0.1001,0.93
357,3.67579,-0.5383,0.5898,0.012,0.8
358,3.68466,-0.4711,0.4955,-0.0034,0.68
359,3.69505,-0.4679,0.3714,-0.1966,0.63
360,3.70798,-0.5796,0.3264,-0.5051,0.84
361,3.71791,-0.6433,0.3487,-0.8267,1.1
362,3.72798,-0.6316,0.3562,-1.0441,1.27
363,3.74078,-0.5823,0.3929,-1.1433,1.34
364,3.7506,-0.5224,0.4256,-1.1259,1.31
365,3.76186,-0.4679,0.4464,-1.0514,1.23
366,3.77236,-0.4814,0.4662,-0.9693,1.18
367,3.78383,-0.5351,0.5021,-0.7929,1.08
368,3.78457,-0.5351,0.5021,-0.7929,1.08
369,3.79535,-0.55,0.5549,-0.6578,1.02
370,3.80524,-0.5175,0.5959,-0.6388,1.02
371,3.8168,-0.4005,0.657,-0.6637,1.02
372,3.82744,-0.2747,0.697,-0.7128,1.03
373,3.84229,-0.2053,0.7308,-0.8665,1.15
374,3.85414,-0.2864,0.7598,-0.9075,1.22
375,3.86136,-0.3238,0.7554,-0.8924,1.21
376,3.87185,-0.3512,0.7056,-0.8237,1.14
377,3.8837,-0.4074,0.6599,-0.6566,1.02
378,3.89539,-0.4474,0.6426,-0.4372,0.9
379,3.90563,-0.4052,0.6668,-0.2582,0.82
380,3.91758,-0.3238,0.7244,-0.1167,0.8
381,3.93032,-0.2512,0.7269,-0.1724,0.79
382,3.93077,-0.2512,0.7269,-0.1724,0.79
383,3.93875,-0.2588,0.7452,-0.2433,0.83
384,3.95317,-0.3355,0.7598,-0.3947,0.92
385,3.96575,-0.36,0.7242,-0.4805,0.94
386,3.97329,-0.3666,0.7117,-0.5064,0.95
387,3.98496,-0.3536,0.7,-0.5296,0.95
388,3.99555,-0.3087,0.7041,-0.5711,0.96
389,4.00731,-0.2429,0.7549,-0.5843,0.99
390,4.01756,-0.1938,0.7659,-0.5733,0.98
391,4.02985,-0.1772,0.7791,-0.5276,0.96
392,4.04033,-0.2107,0.8407,-0.49,1.0
393,4.05207,-0.2691,0.8864,-0.4912,1.05
394,4.06494,-0.3348,0.9052,-0.511,1.09
395,4.06536,-0.3348,0.9052,-0.511,1.09
396,4.08434,-0.3617,0.9467,-0.4377,1.1
397,4.08543,-0.3551,0.9435,-0.4223,1.09
398,4.09747,-0.2982,0.923,-0.3715,1.04
399,4.10743,-0.2659,0.9306,-0.3603,1.03
400,4.1275,-0.2337,0.9054,-0.4861,1.05
401,4.12784,-0.2351,0.9071,-0.502,1.06
402,4.13789,-0.2388,0.9101,-0.5428,1.09
403,4.151,-0.2107,0.9103,-0.5728,1.1
404,4.16052,-0.1765,0.8922,-0.5948,1.09
405,4.17444,-0.1565,0.8785,-0.5916,1.07
406,4.18576,-0.1479,0.8751,-0.563,1.05
407,4.19495,-0.1579,0.8619,-0.544,1.03
408,4.20726,-0.2017,0.8473,-0.4903,1.0
409,4.21737,-0.2368,0.8502,-0.4155,0.98
410,4.22698,-0.2449,0.8541,-0.3588,0.96
411,4.23892,-0.2053,0.8334,-0.3652,0.93
412,4.23925,-0.2053,0.8334,-0.3652,0.93
413,4.25066,-0.1841,0.8289,-0.3982,0.94
414,4.26195,-0.1948,0.8385,-0.4524,0.97
415,4.27461,-0.2068,0.8192,-0.5442,1.0
416,4.28552,-0.1875,0.8033,-0.596,1.02
417,4.29588,-0.1821,0.7811,-0.6053,1.0
418,4.30782,-0.2019,0.7679,-0.5826,0.98
419,4.32093,-0.2447,0.761,-0.5196,0.95
420,4.33523,-0.2539,0.7124,-0.4534,0.88
421,4.33564,-0.2539,0.7124,-0.4534,0.88
422,4.35083,-0.2657,0.7066,-0.406,0.86
423,4.36241,-0.241,0.665,-0.4035,0.81
424,4.36319,-0.241,0.665,-0.4035,0.81
425,4.37429,-0.1914,0.6106,-0.3681,0.74
426,4.38376,-0.1548,0.5734,-0.3378,0.68
427,4.39605,-0.1157,0.5089,-0.3219,0.61
428,4.40671,-0.1059,0.4774,-0.328,0.59
429,4.41751,-0.1054,0.4547,-0.361,0.59
430,4.43189,-0.0898,0.4315,-0.4084,0.6
431,4.44398,-0.0844,0.3638,-0.4443,0.58
432,4.4509,-0.0661,0.3262,-0.47,0.58
433,4.4621,0.0062,0.2761,-0.5254,0.59
434,4.47292,0.1022,0.2402,-0.563,0.62
435,4.48472,0.177,0.2732,-0.5399,0.63
436,4.49866,0.303,0.3721,-0.4499,0.66
437,4.49966,0.3446,0.3873,-0.4328,0.68
438,4.50798,0.5515,0.4254,-0.3886,0.8
439,4.51837,0.7408,0.5028,-0.3901,0.98
440,4.5294,0.9446,0.5412,-0.5691,1.23
441,4.54357,1.2157,0.5058,-0.9029,1.6
442,4.55488,1.3259,0.4803,-1.1589,1.83
443,4.56122,1.3137,0.4737,-1.2283,1.86
444,4.57438,1.099,0.4625,-1.3551,1.8
445,4.58562,0.8908,0.5324,-1.3223,1.68
446,4.5969,0.8622,0.5844,-1.272,1.64
447,4.60666,0.9504,0.644,-1.2478,1.7
448,4.61928,1.0457,0.87,-1.4662,2.0
449,4.62924,1.0469,1.0916,-1.9541,2.47
450,4.62958,1.0469,1.0916,-1.9541,2.47
451,4.6406,1.0198,1.2797,-2.5951,3.07
452,4.65149,0.7653,1.7446,-3.3131,3.82
453,4.66309,0.5691,2.2623,-3.7836,4.44
454,4.67706,0.1382,3.6496,-3.9585,5.39
455,4.6919,0.564,5.6377,-3.6099,6.72
456,4.69235,0.564,5.6377,-3.6099,6.72
457,4.7074,1.1383,7.9966,-2.4212,8.43
458,4.71867,1.2597,7.9966,-0.6366,8.12
459,4.72898,2.0068,7.9966,1.4465,8.37
460,4.74134,3.5536,7.9966,3.9655,9.61
461,4.75216,5.628,7.9966,6.2928,11.63
462,4.76367,7.5906,7.9966,7.0868,13.11
463,4.77697,8.0079,6.9412,5.6782,12.02
464,4.77746,8.0079,6.9412,5.6782,12.02
465,4.79246,8.0079,4.381,6.469,11.19
466,4.79789,8.0079,3.2844,7.5639,11.49
467,4.80764,8.0079,2.1929,7.9766,11.51
468,4.81777,8.0079,1.4368,7.9766,11.39
469,4.82792,8.0079,0.7645,7.9707,11.32
470,4.84004,8.0079,0.0956,6.1312,10.09
471,4.85137,8.0079,-0.6994,4.2491,9.09
472,4.86242,8.0079,-2.9789,-0.4109,8.55
473,4.87665,8.0079,-3.874,-3.2098,9.46
474,4.8857,7.9322,-4.6719,-0.7727,9.24
475,4.89708,6.5956,-6.0365,1.6923,9.1
476,4.91075,3.6152,-6.6744,3.8421,8.51
477,4.91128,3.6152,-6.6744,3.8421,8.51
478,4.92274,1.8968,-6.4049,4.0561,7.81
479,4.94012,0.2547,-5.4116,2.3438,5.9
480,4.95233,0.3314,-4.3665,1.2594,4.56
481,4.95403,0.5002,-4.1737,1.1587,4.36
482,4.96325,1.1649,-3.4875,0.9572,3.8
483,4.97411,1.2673,-2.6816,0.409,2.99
484,4.98467,1.203,-1.9511,-0.093,2.29
485,4.99619,1.6516,-1.2708,-0.5372,2.15
486,5.00688,1.8993,-0.6596,-0.7487,2.15
487,5.0184,2.1521,0.1066,-1.1594,2.45
488,5.0297,2.4255,0.6186,-1.7154,3.03
489,5.04402,2.4785,1.1072,-2.3115,3.57
490,5.05632,2.4353,1.3652,-2.5399,3.77
491,5.05655,2.4353,1.3652,-2.5399,3.77
492,5.07369,2.1455,1.2531,-2.4803,3.51
493,5.08545,1.6877,1.0877,-2.3936,3.12
494,5.08588,1.6877,1.0877,-2.3936,3.12
495,5.09627,1.2983,0.9482,-2.2216,2.74
496,5.10723,1.1368,0.8162,-2.0604,2.49
497,5.11876,1.0345,0.6672,-1.7833,2.17
498,5.12982,0.9282,0.5922,-1.4638,1.83
499,5.14391,0.9121,0.5316,-0.9979,1.45
500,5.1578,0.885,0.4545,-0.6312,1.18
501,5.16171,0.8647,0.4418,-0.5816,1.13
502,5.17369,0.6947,0.4202,-0.3564,0.89
503,5.18396,0.554,0.4193,-0.1737,0.72
504,5.19533,0.4895,0.3985,-0.0664,0.63
505,5.20606,0.3698,0.4261,-0.0429,0.57
506,5.21854,0.2989,0.4024,-0.1651,0.53
507,5.2292,0.251,0.3401,-0.3034,0.52
508,5.24142,0.1108,0.3399,-0.4265,0.56
509,5.25454,0.0268,0.3255,-0.428,0.54
510,5.25523,0.0131,0.3203,-0.4233,0.53
511,5.26884,-0.0863,0.262,-0.328,0.43
512,5.27447,-0.1501,0.2263,-0.2775,0.39
513,5.28574,-0.3409,0.1417,-0.1543,0.4
514,5.29626,-0.5869,0.1547,-0.0473,0.61
515,5.30742,-0.7086,0.1808,0.0049,0.73
516,5.31862,-0.7242,0.1781,-0.0249,0.75
